Temperature	F_vib	CV_vib	S_vib
K	eV	eV/K	eV/K
5.0	0.1701654636370446	2.611689979608713e-08	8.326123741591471e-09
10.0	0.1701653017104447	2.1277687700971163e-07	6.979836260299307e-08
15.0	0.17016458074987165	7.631003699430284e-07	2.430654136608453e-07
20.0	0.17016253001276802	2.196322825686117e-06	6.257607476365034e-07
25.0	0.17015759352238202	5.8897475660560275e-06	1.4532008355339457e-06
30.0	0.17014656297626485	1.372972615517638e-05	3.1441118317465307e-06
35.0	0.1701238906814982	2.7115150637427042e-05	6.189382117753914e-06
40.0	0.17008170183313503	4.651156035719663e-05	1.1009996628046443e-05
45.0	0.17001036066298897	7.157999743059758e-05	1.7883440147900503e-05
50.0	0.16989923044669572	0.00010148096599083903	2.6934752702930966e-05
55.0	0.16973738419870213	0.0001351451076710671	3.816026610757409e-05
60.0	0.1695141653095388	0.00017146270618071646	5.146119522175095e-05
65.0	0.16921958058791614	0.00020939968177338875	6.667594517641596e-05
70.0	0.16884454467992913	0.0002480585436278804	8.36069038631628e-05
75.0	0.1683810066050838	0.0002867016493290576	0.00010204080877120934
80.0	0.1678219895933804	0.0003247506901563735	0.00012176320783059222
85.0	0.16716157126341524	0.00036177273896505246	0.00014256805042102232
90.0	0.16639482567228872	0.0003974600157193578	0.00016426352878565979
95.0	0.16551774339069514	0.0004316079550500909	0.00018667518104996313
100.0	0.16452714113626596	0.00046409424841506875	0.0002096470875162263
105.0	0.16342056881412056	0.0004948602166226423	0.00023304180393260435
110.0	0.16219621902606932	0.0005238950270939245	0.0002567395076559454
115.0	0.16085284208705117	0.0005512227753438554	0.00028063669525024335
120.0	0.15938966817285172	0.0005768921894948767	0.00030464466373790526
125.0	0.15780633726983834	0.000600968603870057	0.0003286879287581836
130.0	0.15610283698116517	0.0006235278218835377	0.0003527026761586487
135.0	0.15427944786638903	0.0006446515092842784	0.0003766353039633916
140.0	0.1523366957783361	0.0006644238012427551	0.00040044108481457195
145.0	0.1502753105579296	0.0006829288561201835	0.00042408296132370624
150.0	0.1480961904157162	0.0007002491370642883	0.0004475304755753608
155.0	0.14580037134098672	0.0007164642459985266	0.0004707588272832658
160.0	0.14338900091726095	0.0007316501716821181	0.0004937480513516752
165.0	0.1408633159742418	0.0007458788441984521	0.0005164823038144512
170.0	0.13822462356320972	0.0007592179130103013	0.0005389492445966354
175.0	0.13547428480024717	0.0007717306853983422	0.0005611395057809729
180.0	0.13261370117671292	0.0007834761775236116	0.0005830462347393659
185.0	0.12964430298738663	0.000794509242321655	0.0006046647023917817
190.0	0.1265675395729297	0.000804880747643495	0.0006259919678466032
195.0	0.1233848711145425	0.0008146377850922411	0.0006470265916715334
200.0	0.12009776175504765	0.0008238238953433675	0.0006677683909936396
205.0	0.11670767385241544	0.0008324792997650857	0.0006882182305040987
210.0	0.11321606319934926	0.0008406411311763223	0.0007083778442353277
215.0	0.10962437506641443	0.0008483436588315493	0.000728249683683069
220.0	0.10593404094674345	0.0008556185043871544	0.0007478367884657433
225.0	0.10214647589801333	0.0008624948468268988	0.0007671426762541527
230.0	0.09826307639251289	0.0008689996152114559	0.0007861712491729495
235.0	0.09428521859909388	0.0008751576687540716	0.0008049267142798273
240.0	0.09021425703185514	0.0008809919641730914	0.0008234135160754747
245.0	0.08605152350990534	0.0008865237105814176	0.0008416362792955221
250.0	0.08179832638061664	0.0008917725123790893	0.0008595997604903598
255.0	0.07745594996571431	0.0008967565007454952	0.0008773088071166152
260.0	0.07302565419543128	0.0009014924544029806	0.0008947683230498923
265.0	0.06850867440102155	0.0009059959103595108	0.0009119832395871028
270.0	0.06390622124022079	0.0009102812653457863	0.0009289584911418487
275.0	0.05921948073393435	0.0009143618686507251	0.0009456989949518204
280.0	0.054449614395598436	0.0009182501070347835	0.0009622096342155151
285.0	0.04959775943733122	0.0009219574823676441	0.0009784952441595123
290.0	0.04466502903933235	0.0009254946825993118	0.000994560600609292
295.0	0.039652512670932616	0.0009288716466332896	0.0010104104106976562
300.0	0.034561276453434965	0.0009320976236297945	0.0010260493053971295
305.0	0.029392363556288086	0.0009351812272265244	0.0010414818336074616
310.0	0.024146794619431148	0.0009381304851253553	0.001056712457567478
315.0	0.0188255681956856	0.0009409528844562236	0.0010717455493932924
320.0	0.013429661207997703	0.0009436554132942256	0.001086585388572974
325.0	0.007960029417124087	0.000946244598673241	0.001101236160271651
330.0	0.002417607896038441	0.000948726541408889	0.001115701954321794
335.0	-0.00319668849211219	0.000951106948015696	0.0011299867647910232
340.0	-0.008881964615123477	0.0009533911599772489	0.001144094490034928
345.0	-0.01463734459417203	0.0009555841806048769	0.001158028933155572
350.0	-0.02046197132940456	0.0009576906996984363	0.0011717938027975081
355.0	-0.026355006030236064	0.0009597151162033906	0.001185392714222713
360.0	-0.03231562775160948	0.0009616615590403045	0.0011988291906143867
365.0	-0.03834303293725637	0.0009635339062667103	0.0012121066645664413
370.0	-0.04443643497079116	0.0009653358027165612	0.0012252284797219285
375.0	-0.05059506373530324	0.0009670706762490724	0.0012381978925288428
380.0	-0.056818165181965585	0.0009687417527266295	0.0012510180740863185
385.0	-0.06310500090805055	0.0009703520698306071	0.0012636921120583
390.0	-0.0694548477446395	0.0009719044898137576	0.0012762230126350397
395.0	-0.0758669973542286	0.0009734017112791502	0.0012886137025258546
400.0	-0.08234075583834381	0.0009748462800671955	0.0013008670309690566
405.0	-0.0888754433552238	0.000976240599325191	0.0013129857717470844
410.0	-0.09547039374757034	0.0009775869388269484	0.0013249726251969888
415.0	-0.10212495418032129	0.000978887443604179	0.001336830220207736
420.0	-0.10883848478836418	0.0009801441419457027	0.0013485611161974875
425.0	-0.11561035833406956	0.0009813589528157316	0.0013601678050650641
430.0	-0.12243995987451685	0.000982533692737882	0.0013716527131108743
435.0	-0.1293266864382268	0.0009836700821875674	0.001383018202923531
440.0	-0.13626994671124368	0.000984769751531625	0.001394266575229088
445.0	-0.1432691607323656	0.000985834246550865	0.0014054000707005097
450.0	-0.1503237595973139	0.0009868650335779544	0.0014164208717256344
455.0	-0.15743318517163946	0.0009878635042804846	0.001427331104132175
460.0	-0.1645968898121427	0.0009888309801164372	0.0014381328388689716
465.0	-0.17181433609659263	0.000989768716487018	0.00144882809364287
470.0	-0.17908499656151122	0.0009906779066097438	0.0014594188345109348
475.0	-0.186408353447817	0.0009915596851328085	0.001469906977428047
480.0	-0.1937838984540857	0.000992415131509922	0.0014802943897500409
485.0	-0.20121113249722525	0.0009932452731534261	0.0014905828916927791
490.0	-0.2086895654803303	0.0009940510883818554	0.0015007742577476512
495.0	-0.21621871606751009	0.0009948335091769392	0.0015108702180541558
500.0	-0.22379811146547354	0.0009955934237638432	0.0015208724597304188
505.0	-0.23142728721165712	0.0009963316790272277	0.0015307826281621654
510.0	-0.2391057869687052	0.0009970490827748933	0.0015406023282514497
515.0	-0.24683316232509592	0.0009977464058596973	0.00155033312562573
520.0	-0.254608972601697	0.0009984243841697576	0.0015599765478084124
525.0	-0.26243278466410896	0.000999083720495971	0.0015695340853518628
530.0	-0.2703041727405463	0.0009997250862854316	0.0015790071929338459
535.0	-0.2782227182451609	0.0010003491232885079	0.0015883972904184806
540.0	-0.2861880096065195	0.0010009564451068003	0.0015977057638826614
545.0	-0.29419964210119254	0.0010015476386486845	0.0016069339666090535
550.0	-0.30225721769217756	0.00100212326549862	0.001616083220046603
555.0	-0.31036034487208397	0.00100268386320595	0.0016251548147396524
560.0	-0.31850863851085043	0.0010032299464985224	0.0016341500112265637
565.0	-0.32670171970791395	0.001003762008426032	0.0016430700409088938
570.0	-0.3349392156486353	0.0010042805214376636	0.0016519161068920692
575.0	-0.3432207594648559	0.0010047859383982784	0.0016606893847984795
580.0	-0.3515459900994744	0.0010052786935470764	0.0016693910235539083
585.0	-0.3599145521748602	0.0010057592034023984	0.0016780221461482328
590.0	-0.3683260958650329	0.0010062278676160703	0.0016865838503711923
595.0	-0.37678027677144654	0.0010066850697804297	0.0016950772095241972
600.0	-0.385276755802277	0.0010071311781910364	0.0017035032731087933
605.0	-0.3938151990551135	0.0010075665465677074	0.0017118630674928719
610.0	-0.40239527770288547	0.001007991514736598	0.0017201575965551102
615.0	-0.41101666788299884	0.0010084064092754739	0.001728387842308546
620.0	-0.41967905058952515	0.0010088115441246584	0.001736554765504078
625.0	-0.4283821115683459	0.0010092072211655015	0.001744659306214362
630.0	-0.4371255412152102	0.0010095937307684215	0.0017527023843990793
635.0	-0.445909034476509	0.0010099713523123231	0.001760684900451934
640.0	-0.4547322907528014	0.0010103403546770353	0.0017686077357302976
645.0	-0.4635950138049109	0.001010700996710363	0.0017764717530679049
650.0	-0.472496911662565	0.0010110535276712353	0.0017842777972712491
655.0	-0.48143769653545	0.0010113981876503251	0.0017920266956003535
660.0	-0.4904170847266669	0.0010117352079694257	0.0017997192582342738
665.0	-0.49943479654844736	0.0010120648115608019	0.0018073562787220391
670.0	-0.5084905562401131	0.001012387213327656	0.0018149385344194957
675.0	-0.5175840918881569	0.0010127026204867088	0.0018224667869123992
680.0	-0.526715135348438	0.0010130112328940297	0.0018299417824265553
685.0	-0.5358834221703731	0.001013313243354854	0.0018373642522250488
690.0	-0.5450886915230919	0.001013608837918472	0.001844734912993415
695.0	-0.5543306861234959	0.0010138981961588282	0.0018520544672128612
700.0	-0.5636091521661212	0.0010141814914417543	0.001859323603522107
705.0	-0.5729238392548387	0.0010144588911794275	0.0018665429970682445
710.0	-0.5822745003362345	0.0010147305570728613	0.0018737133098468781
715.0	-0.5916608916346812	0.0010149966453429783	0.001880835191032073
720.0	-0.6010827725890341	0.00101525730695091	0.0018879092772963208
725.0	-0.6105399057909076	0.0010155126878080903	0.0018949361931209442
730.0	-0.6200320569244725	0.0010157629289766494	0.001901916551097234
735.0	-0.6295589947077491	0.001016008166860678	0.0019088509522186834
740.0	-0.6391204908353144	0.0010162485333887411	0.0019157399861645156
745.0	-0.6487163199224338	0.0010164841561881603	0.0019225842315749254
750.0	-0.6583462594505324	0.0010167151587514786	0.0019293842563182296
755.0	-0.6680100897139987	0.001016941660595477	0.0019361406177502202
760.0	-0.6777075937682322	0.0010171637774131223	0.0019428538629659923
765.0	-0.6874385573789721	0.0010173816212188447	0.0019495245290444838
770.0	-0.697202768972814	0.0010175953004874037	0.0019561531432859976
775.0	-0.7070000195888781	0.0010178049202867448	0.001962740223442849
780.0	-0.7168301028316524	0.0010180105824050495	0.0019692862779435447
785.0	-0.7266928148249159	0.0010182123854723818	0.0019757918061104655
790.0	-0.7365879541667321	0.001018410425077034	0.001982257298371505
795.0	-0.7465153218854943	0.0010186047938770182	0.0019886832364656767
800.0	-0.7564747213969896	0.001018795581706761	0.00199507009364298
805.0	-0.7664659584624359	0.0010189828756793646	0.0020014183348587276
810.0	-0.776488841147494	0.0010191667602845553	0.002007728416962395
815.0	-0.7865431797821817	0.0010193473174825664	0.0020140007888813784
820.0	-0.7966287869217276	0.0010195246267941601	0.002020235891799502
825.0	-0.8067454773082775	0.001019698765386919	0.002026434159330854
830.0	-0.8168930678334855	0.001019869808158022	0.0020325960176887153
835.0	-0.8270713775018991	0.0010200378278136639	0.0020387218858499904
840.0	-0.8372802273952077	0.0010202028949452475	0.0020448121757151608
845.0	-0.8475194406372304	0.0010203650781025321	0.002050867292263926
850.0	-0.8577888423597042	0.001020524443863827	0.0020568876337067085
855.0	-0.8680882596687968	0.001020681056903429	0.002062873591632112
860.0	-0.878417521612364	0.0010208349800563921	0.002068825551150412
865.0	-0.8887764591479187	0.0010209862743807093	0.0020747438910333604
870.0	-0.8991649051112567	0.0010211349992170977	0.002080628983850186
875.0	-0.9095826941858064	0.0010212812122464643	0.0020864811961001754
880.0	-0.9200296628725688	0.0010214249695451151	0.0020923008883416425
885.0	-0.9305056494607621	0.0010215663256378802	0.00209808841531767
890.0	-0.941010493999029	0.0010217053335491578	0.0021038441260785735
895.0	-0.9515440382672837	0.0010218420448520713	0.002109568364101178
900.0	-0.9621061257491403	0.001021976509715706	0.0021152614674050762
905.0	-0.9726966016048944	0.001022108776950615	0.0021209237686659345
910.0	-0.983315312645082	0.0010222388940525798	0.0021265555953258602
915.0	-0.9939621073046214	0.0010223669072447874	0.002132157269701071
920.0	-1.0046368356173871	0.0010224928615183801	0.0021377291090867567
925.0	-1.0153393491914011	0.0010226168006715606	0.002143271425859427
930.0	-1.0260695011844823	0.0010227387673472494	0.002148784527576593
935.0	-1.036827146280392	0.0010228588030693423	0.002154268717074054
940.0	-1.0476121406654586	0.0010229769482776915	0.002159724292560747
945.0	-1.058424342005687	0.0010230932423617735	0.002165151547711275
950.0	-1.069263609424303	0.0010232077236932006	0.002170550771756177
955.0	-1.0801298034797653	0.001023320429657003	0.002175922249569924
960.0	-1.0910227861441895	0.0010234313966818772	0.002181266261756915
965.0	-1.1019424207822124	0.001023540660269278	0.0021865830847352706
970.0	-1.1128885721302761	0.0010236482550215445	0.002191872990818634
975.0	-1.12386110627628	0.0010237542146690226	0.002197136248296088
980.0	-1.1348598906396803	0.0010238585720962255	0.0022023731215100547
985.0	-1.145884793951933	0.001023961359367103	0.0022075838709324103
990.0	-1.1569356862373463	0.001024062607749432	0.0022127687532388003
995.0	-1.16801243879425	0.0010241623477383565	0.002217928021381198
1000.0	-1.1791149241765837	0.0010242606090791362	0.0022230619246586636
1005.0	-1.1902430161757815	0.0010243574207891167	0.0022281707087866654
1010.0	-1.2013965898030599	0.001024452811178958	0.0022332546159645546
1015.0	-1.2125755212719487	0.0010245468078731123	0.00223831388494164
1020.0	-1.2237796879812601	0.0010246394378296741	0.0022433487510816435
1025.0	-1.2350089684982863	0.0010247307273595057	0.002248359446425749
1030.0	-1.2462632425423381	0.0010248207021447766	0.002253346199754123
1035.0	-1.2575423909686092	0.0010249093872568547	0.0022583092366461185
1040.0	-1.2688462957523128	0.0010249968071735995	0.0022632487795390885
1045.0	-1.2801748399730928	0.0010250829857961399	0.002268165047785798
1050.0	-1.2915279077997914	0.0010251679464650435	0.0022730582577106754
1055.0	-1.302905384475408	0.0010252517119759997	0.0022779286226646727
1060.0	-1.3143071563023698	0.0010253343045949724	0.0022827763530790077
1065.0	-1.3257331106280652	0.0010254157460728721	0.0022876016565176478
1070.0	-1.3371831358306523	0.0010254960576597655	0.0022924047377286373
1075.0	-1.3486571213050942	0.0010255752601186143	0.0022971857986943253
1080.0	-1.3601549574494445	0.0010256533737385948	0.0023019450386804812
1085.0	-1.3716765356514031	0.0010257304183479716	0.0023066826542842774
1090.0	-1.3832217482750833	0.0010258064133265926	0.002311398839481345
1095.0	-1.3947904886480165	0.0010258813776179807	0.002316093785671708
1100.0	-1.4063826510483803	0.0010259553297410366	0.002320767681724749
1105.0	-1.417998130692472	0.0010260282878013986	0.002325420714023215
1110.0	-1.4296368237223895	0.001026100269502423	0.002330053066506301
1115.0	-1.441298627193871	0.0010261712921558611	0.0023346649207118164
1120.0	-1.4529834390644645	0.001026241372692168	0.0023392564558173735
1125.0	-1.4646911581817696	0.0010263105276705486	0.00234382784868082
1130.0	-1.4764216842719584	0.0010263787732886214	0.0023483792738797117
1135.0	-1.4881749179284733	0.0010264461253918758	0.0023529109037500736
1140.0	-1.4999507606009226	0.0010265125994827807	0.0023574229084242274
1145.0	-1.5117491145841164	0.0010265782107296455	0.002361915455867912
1150.0	-1.52356988300739	0.0010266429739752057	0.002366388711916586
1155.0	-1.535412969823976	0.0010267069037449706	0.002370842840311049
1160.0	-1.5472782798006595	0.001026770014255299	0.0023752780027322135
1165.0	-1.5591657185075383	0.0010268323194212532	0.002379694358835323
1170.0	-1.571075192308032	0.0010268938328642124	0.002384092066283275
1175.0	-1.5830066083488994	0.001026954567919268	0.0023884712807794506
1180.0	-1.5949598745506355	0.0010270145376424062	0.002392832156099741
1185.0	-1.6069348995978407	0.0010270737548174758	0.0023971748441240343
1190.0	-1.6189315929298422	0.0010271322319629398	0.002401499494866981
1195.0	-1.6309498647314367	0.0010271899813384686	0.0024058062565081814
1200.0	-1.6429896259238042	0.0010272470149513266	0.00241009527542178
1205.0	-1.655050788155539	0.0010273033445625463	0.0024143666962054486
1210.0	-1.66713326379382	0.0010273589816929792	0.002418620661708811
1215.0	-1.6792369659158008	0.0010274139376291284	0.0024228573130612658
1220.0	-1.6913618083000028	0.0010274682234288545	0.0024270767896993808
1225.0	-1.7035077054179817	0.0010275218499268873	0.0024312792293935503
1230.0	-1.715674572426005	0.001027574827740211	0.0024354647682742975
1235.0	-1.72786232515698	0.0010276271672732785	0.0024396335408580633
1240.0	-1.7400708801123956	0.001027678878723094	0.002443785680072346
1245.0	-1.752300154454455	0.0010277299720841393	0.0024479213172805348
1250.0	-1.764550065998307	0.0010277804571531873	0.002452040582306134
1255.0	-1.7768205332044642	0.0010278303435339612	0.002456143603456587
1260.0	-1.7891114751711954	0.0010278796406416784	0.0024602305075466426
1265.0	-1.801422811627154	0.0010279283577074643	0.0024643014199212557
1270.0	-1.8137544629241191	0.001027976503782652	0.0024683564644780586
1275.0	-1.8261063500297743	0.0010280240877429537	0.0024723957636894
1280.0	-1.838478394520635	0.001028071118292545	0.0024764194386240096
1285.0	-1.850870518575103	0.0010281176039679968	0.0024804276089681913
1290.0	-1.8632826449666113	0.0010281635531421553	0.002484420393046688
1295.0	-1.875714697056838	0.00102820897402787	0.002488397907843096
1300.0	-1.8881665987890768	0.0010282538746816553	0.0024923602690199477
1305.0	-1.900638274681677	0.0010282982630072358	0.002496307590938391
1310.0	-1.9131296498215706	0.001028342146759008	0.002500239986677516
1315.0	-1.925640649857918	0.0010283855335454163	0.0025041575680533543
1320.0	-1.9381712009958538	0.0010284284308322085	0.002508060445637475
1325.0	-1.9507212299902832	0.0010284708459456719	0.0025119487287752745
1330.0	-1.9632906641398218	0.001028512786075695	0.002515822525603952
1335.0	-1.9758794312807837	0.0010285542582788496	0.0025196819430701217
1340.0	-1.9884874597812736	0.0010285952694812964	0.002523527086947141
1345.0	-2.001114678535367	0.0010286358264816934	0.0025273580618520564
1350.0	-2.013761016957361	0.0010286759359539835	0.0025311749712623754
1355.0	-2.0264264049761547	0.001028715604450137	0.002534977917532386
1360.0	-2.039110773029597	0.0010287548384028055	0.002538767001909337
1365.0	-2.051814052059071	0.0010287936441279177	0.002542542324549181
1370.0	-2.0645361735040533	0.0010288320278272055	0.0025463039845321665
1375.0	-2.077277069296722	0.0010288699955906906	0.0025500520798780587
1380.0	-2.090036671856785	0.0010289075533990557	0.0025537867075612016
1385.0	-2.1028149140861925	0.0010289447071260029	0.0025575079635251447
1390.0	-2.1156117293641024	0.001028981462540552	0.002561215942697258
1395.0	-2.1284270515417743	0.001029017825309251	0.0025649107390028083
1400.0	-2.1412608149376386	0.0010290538009983543	0.0025685924453790485
1405.0	-2.154112954332344	0.0010290893950759474	0.0025722611537889383
1410.0	-2.166983404963969	0.0010291246129140138	0.002575916955234544
1415.0	-2.1798721025232255	0.0010291594597904438	0.002579559939770463
1420.0	-2.192778983148745	0.0010291939408910127	0.002583190196516743
1425.0	-2.205703983422458	0.0010292280613113055	0.0025868078136717446
1430.0	-2.2186470403650076	0.0010292618260585712	0.0025904128785247354
